# file name
# oil-aspiration/102122-2.xlsx
# pressure
# -84.3
# delta pressure
# 10561.7
# huan comment
# High Viscosity oil aspiration Air pipette, but ethanol is already in it
# state
# wetting
# pipette fill
# air
# solvent
# ethanol
# lubricating ethanol
# false
272.00,16.873
272.25,17.544
272.50,18.267
272.75,18.937
273.00,19.582
273.25,20.279
273.50,20.950
273.75,21.595
274.00,22.240
274.25,22.911
274.50,23.504
274.75,24.149
275.00,24.742
275.25,25.362
275.50,25.800
275.75,26.187
