# file name
# 051722-1_coated pipette.xlsx
# pressure
# -339.3
# delta pressure
# -87.5
# condensate
# Synapsin
# state
# nonwetting
346.50,14.849
347.00,14.386
347.50,13.985
348.00,13.477
348.50,13.127
349.00,12.512
349.50,11.949
350.00,11.490
350.50,11.001
351.00,10.348
351.50,9.873
352.00,9.237
352.50,8.740
353.00,8.111
353.50,7.417
354.00,6.890
354.50,6.194
355.50,4.966
356.00,4.317
356.50,3.993
