# file name
# 051722-1_coated pipette.xlsx
# pressure
# -251.8
# delta pressure
# -2.8
# condensate
# Synapsin
# state
# nonwetting
316.00,14.231
316.50,14.007
317.00,13.771
317.50,13.334
318.00,12.947
318.50,12.672
319.00,12.221
319.50,11.854
320.00,11.319
320.50,11.166
321.00,10.931
321.50,10.400
322.00,9.964
322.50,9.658
323.00,9.258
323.50,8.858
324.00,8.577
324.50,8.063
325.00,7.591
325.50,7.167
326.00,6.715
326.50,6.225
327.00,5.986
327.50,5.456
328.00,5.102
328.50,4.643
329.00,4.209
