# file name
# excel_files/Figure_3b_data.xlsx
# pressure
# -525.0
# delta pressure
# -800.0
# condensate
# RGG
# state
# wetting
857,18.241
858,17.923
859,17.763
860,17.445
861,17.206
862,16.808
863,16.569
864,16.250
865,15.852
866,15.533
867,15.214
868,14.816
869,14.498
870,14.179
871,13.781
872,13.462
873,13.143
874,12.745
875,12.426
876,12.028
877,11.710
878,11.232
879,10.754
880,10.355
881,9.877
882,9.400
883,8.922
884,8.444
885,7.886
886,7.249
887,6.691
888,5.974
889,5.496
890,5.018
