# file name
# Figure_3b_data.xlsx
# pressure
# -225.0
# delta pressure
# -50.0
# condensate
# RGG
# state
# wetting
61,8.922
62,8.842
63,8.762
64,8.683
65,8.603
66,8.523
67,8.364
68,8.364
69,8.284
70,8.205
71,8.125
72,8.045
73,7.966
74,7.886
75,7.806
76,7.647
77,7.567
78,7.567
79,7.488
80,7.408
81,7.328
82,7.169
83,7.089
84,7.010
85,6.930
86,6.850
87,6.771
88,6.691
89,6.612
90,6.532
91,6.452
92,6.373
93,6.293
94,6.213
95,6.134
96,6.054
97,5.895
98,5.815
99,5.815
