# file name
# excel_files/Figure_3b_data.xlsx
# pressure
# 75.0
# delta pressure
# 150.0
# condensate
# RGG
# state
# wetting
1001,9.798
1002,9.957
1003,10.276
1004,10.594
1005,10.913
1006,11.232
1007,11.550
1008,11.789
1009,12.108
1010,12.426
1011,12.665
1012,12.984
1013,13.143
1014,13.382
1015,13.781
1016,13.940
1017,14.259
1018,14.498
1019,14.657
