# file name
# Figure_3b_data.xlsx
# pressure
# 275.0
# delta pressure
# 550.0
# condensate
# RGG
# state
# wetting
811,6.691
812,6.612
813,6.691
814,6.850
815,7.249
816,7.488
817,7.886
818,8.125
819,8.364
820,8.683
821,9.081
822,9.559
823,10.037
824,10.594
825,11.072
826,11.630
827,12.108
828,12.586
829,13.064
830,13.542
831,13.940
832,14.418
833,14.816
834,15.214
835,15.692
836,16.011
837,16.409
838,16.728
839,17.047
