# file name
# 073022-2_coated pipette.xlsx
# pressure
# -80.8
# delta pressure
# -179.9
# condensate
# Synapsin
# state
# nonwetting
362.00,13.387
363.00,12.968
364.00,11.974
365.00,11.451
366.00,10.850
367.00,10.406
368.00,10.170
369.00,9.700
370.00,9.295
371.00,8.732
372.00,8.225
373.00,7.833
374.00,7.479
375.00,7.256
376.00,6.576
377.00,6.458
378.00,6.131
379.00,5.725
380.00,5.491
381.00,5.191
382.00,4.981
383.00,4.379
384.00,3.896
385.00,3.555
386.00,3.163
387.00,2.889
