# file name
# 073022-2_coated pipette.xlsx
# pressure
# 199.4
# delta pressure
# 199.4
# condensate
# Synapsin
# state
# nonwetting
48.00,13.156
49.00,13.634
50.00,14.637
51.00,15.109
52.00,15.691
53.00,16.293
54.00,17.043
55.00,17.593
56.00,18.150
57.00,18.579
58.00,19.206
59.00,19.704
60.00,20.410
61.00,21.104
62.00,21.510
63.00,21.865
64.00,22.621
