# file name
# 073022-2_coated pipette.xlsx
# pressure
# -141.1
# delta pressure
# -300.5
# condensate
# Synapsin
# state
# nonwetting
604.00,15.713
605.00,14.956
606.00,14.222
607.00,13.387
608.00,12.631
609.00,12.106
610.00,11.256
611.00,10.562
612.00,9.791
613.00,8.486
614.00,7.896
615.00,7.059
616.00,6.226
617.00,5.857
618.00,5.353
619.00,4.657
620.00,3.682
621.00,2.915
622.00,1.883
