# file name
# 073022-2_coated pipette.xlsx
# pressure
# -101.0
# delta pressure
# -220.4
# condensate
# Synapsin
# state
# nonwetting
437.00,15.373
438.00,14.837
439.00,14.262
440.00,13.608
441.00,13.059
442.00,12.432
443.00,11.674
444.00,11.231
445.00,10.706
446.00,10.197
447.00,9.817
448.00,9.360
449.00,8.798
450.00,8.381
451.00,7.896
452.00,7.412
453.00,6.732
454.00,6.432
455.00,5.857
456.00,5.451
457.00,5.124
458.00,4.576
459.00,4.157
460.00,3.935
461.00,3.479
462.00,3.046
